Time [s],V [mV]
0.016666667,371.4565
0.033333333,405.6696
0.05,410.5572
0.066666667,395.8944
0.083333333,386.1193
0.1,366.5689
0.116666667,371.4565
0.133333333,400.782
0.15,464.3206
0.166666667,537.6344
0.183333333,615.8358
0.2,694.0371
0.216666667,742.913
0.233333333,811.3392
0.25,889.5406
0.266666667,977.5171
0.283333333,1075.2688
0.3,1177.9081
0.316666667,1246.3343
0.333333333,1300.0978
0.35,1339.1984
0.366666667,1368.5239
0.383333333,1353.8612
0.4,1309.8729
0.416666667,1265.8847
0.433333333,1246.3343
0.45,1256.1095
0.466666667,1275.6598
0.483333333,1285.435
0.5,1334.3109
0.516666667,1407.6246
0.533333333,1471.1632
0.55,1490.7136
0.566666667,1466.2757
0.583333333,1436.9501
0.6,1412.5122
0.616666667,1402.737
0.633333333,1407.6246
0.65,1480.9384
0.666666667,1578.6901
0.683333333,1681.3294
0.7,1764.4184
0.716666667,1798.6315
0.733333333,1783.9687
0.75,1681.3294
0.766666667,1471.1632
0.783333333,1177.9081
0.8,874.8778
0.816666667,586.5103
0.833333333,366.5689
0.85,219.9413
0.866666667,136.8524
0.883333333,97.7517
0.9,83.089
0.916666667,97.7517
0.933333333,166.1779
0.95,263.9296
0.966666667,303.0303
0.983333333,303.0303
1,283.48
1.016666667,259.042
1.033333333,249.2669
1.05,259.042
1.066666667,293.2551
1.083333333,332.3558
1.1,356.7937
1.116666667,356.7937
1.133333333,347.0186
1.15,332.3558
1.166666667,332.3558
1.183333333,351.9062
1.2,371.4565
1.216666667,386.1193
1.233333333,405.6696
1.25,449.6579
1.266666667,464.3206
1.283333333,459.433
1.3,469.2082
1.316666667,498.5337
1.333333333,522.9717
1.35,542.522
1.366666667,581.6227
1.383333333,635.3861
1.4,698.9247
1.416666667,767.3509
1.433333333,835.7771
1.45,899.3157
1.466666667,972.6295
1.483333333,1011.7302
1.5,1050.8309
1.516666667,1094.8192
1.533333333,1099.7067
1.55,1109.4819
1.566666667,1124.1447
1.583333333,1163.2454
1.6,1226.784
1.616666667,1285.435
1.633333333,1300.0978
1.65,1309.8729
1.666666667,1324.5357
1.683333333,1334.3109
1.7,1329.4233
1.716666667,1344.086
1.733333333,1368.5239
1.75,1402.737
1.766666667,1436.9501
1.783333333,1476.0508
1.8,1515.1515
1.816666667,1554.2522
1.833333333,1612.9032
1.85,1656.8915
1.866666667,1710.6549
1.883333333,1744.868
1.9,1730.2053
1.916666667,1617.7908
1.933333333,1427.175
1.95,1217.0088
1.966666667,1001.955
1.983333333,801.564
2,640.2737
2.016666667,547.4096
2.033333333,488.7586
2.05,474.0958
2.066666667,469.2082
2.083333333,449.6579
2.1,444.7703
2.116666667,464.3206
2.133333333,478.9834
2.15,522.9717
2.166666667,610.9482
2.183333333,738.0254
2.2,806.4516
2.216666667,840.6647
2.233333333,855.3275
2.25,865.1026
2.266666667,860.2151
2.283333333,845.5523
2.3,801.564
2.316666667,747.8006
2.333333333,703.8123
2.35,698.9247
2.366666667,723.3627
2.383333333,767.3509
2.4,830.8895
2.416666667,904.2033
2.433333333,962.8543
2.45,997.0674
2.466666667,1021.5054
2.483333333,1021.5054
2.5,1031.2805
2.516666667,1080.1564
2.533333333,1133.9198
2.55,1202.346
2.566666667,1339.1984
2.583333333,1710.6549
2.6,2179.8631
2.616666667,2649.0714
2.633333333,3176.9306
2.65,3611.9257
2.666666667,3914.956
2.683333333,4002.9326
2.7,3963.8319
2.716666667,3846.5298
2.733333333,3690.1271
2.75,3533.7243
2.766666667,3396.8719
2.783333333,3069.4037
2.8,2502.4438
2.816666667,1925.7087
2.833333333,1446.7253
2.85,1104.5943
2.866666667,874.8778
2.883333333,708.6999
2.9,610.9482
2.916666667,571.8475
2.933333333,566.9599
2.95,586.5103
2.966666667,615.8358
2.983333333,674.4868
3,718.4751
3.016666667,772.2385
3.033333333,811.3392
3.05,811.3392
3.066666667,733.1378
3.083333333,586.5103
3.1,430.1075
3.116666667,288.3675
3.133333333,180.8407
3.15,117.3021
3.166666667,78.2014
3.183333333,63.5386
3.2,68.4262
3.216666667,68.4262
3.233333333,68.4262
3.25,73.3138
3.266666667,73.3138
3.283333333,68.4262
3.3,73.3138
3.316666667,78.2014
3.333333333,83.089
3.35,83.089
3.366666667,87.9765
3.383333333,92.8641
3.4,97.7517
3.416666667,107.5269
3.433333333,112.4145
3.45,122.1896
3.466666667,117.3021
3.483333333,112.4145
3.5,112.4145
3.516666667,102.6393
3.533333333,102.6393
3.55,117.3021
3.566666667,141.74
3.583333333,171.0655
3.6,195.5034
3.616666667,224.8289
3.633333333,239.4917
3.65,254.1544
3.666666667,283.48
3.683333333,327.4682
3.7,381.2317
3.716666667,405.6696
3.733333333,425.2199
3.75,434.9951
3.766666667,449.6579
3.783333333,474.0958
3.8,518.0841
3.816666667,562.0723
3.833333333,562.0723
3.85,542.522
3.866666667,542.522
3.883333333,562.0723
3.9,586.5103
3.916666667,635.3861
3.933333333,679.3744
3.95,713.5875
3.966666667,728.2502
3.983333333,718.4751
4,718.4751
4.016666667,718.4751
4.033333333,728.2502
4.05,757.5758
4.066666667,845.5523
4.083333333,948.1916
4.1,1060.6061
4.116666667,1148.5826
4.133333333,1251.2219
4.15,1358.7488
4.166666667,1417.3998
4.183333333,1383.1867
4.2,1226.784
4.216666667,977.5171
4.233333333,698.9247
4.25,454.5455
4.266666667,268.8172
4.283333333,146.6276
4.3,97.7517
4.316666667,117.3021
4.333333333,175.9531
4.35,259.042
4.366666667,327.4682
4.383333333,351.9062
4.4,356.7937
4.416666667,337.2434
4.433333333,342.131
4.45,356.7937
4.466666667,381.2317
4.483333333,425.2199
4.5,483.871
4.516666667,532.7468
4.533333333,547.4096
4.55,542.522
4.566666667,527.8592
4.583333333,508.3089
4.6,498.5337
4.616666667,493.6461
4.633333333,474.0958
4.65,469.2082
4.666666667,474.0958
4.683333333,498.5337
4.7,542.522
4.716666667,610.9482
4.733333333,679.3744
4.75,698.9247
4.766666667,708.6999
4.783333333,728.2502
4.8,742.913
4.816666667,772.2385
4.833333333,816.2268
4.85,865.1026
4.866666667,923.7537
4.883333333,1021.5054
4.9,1138.8074
4.916666667,1212.1212
4.933333333,1260.9971
4.95,1265.8847
4.966666667,1236.5591
4.983333333,1177.9081
5,1143.695
5.016666667,1143.695
5.033333333,1158.3578
5.05,1177.9081
5.066666667,1217.0088
5.083333333,1246.3343
5.1,1280.5474
5.116666667,1314.7605
5.133333333,1344.086
5.15,1353.8612
5.166666667,1373.4115
5.183333333,1397.8495
5.2,1427.175
5.216666667,1476.0508
5.233333333,1564.0274
5.25,1720.4301
5.266666667,1920.8211
5.283333333,2126.0997
5.3,2248.2893
5.316666667,2326.4907
5.333333333,2414.4673
5.35,2517.1065
5.366666667,2614.8583
5.383333333,2644.1838
5.4,2634.4086
5.416666667,2473.1183
5.433333333,2135.8749
5.45,1686.217
5.466666667,1202.346
5.483333333,782.0137
5.5,469.2082
5.516666667,263.9296
5.533333333,146.6276
5.55,97.7517
5.566666667,92.8641
5.583333333,97.7517
5.6,107.5269
5.616666667,117.3021
5.633333333,131.9648
5.65,171.0655
5.666666667,215.0538
5.683333333,263.9296
5.7,307.9179
5.716666667,342.131
5.733333333,376.3441
5.75,391.0068
5.766666667,400.782
5.783333333,376.3441
5.8,356.7937
5.816666667,307.9179
5.833333333,259.042
5.85,224.8289
5.866666667,205.2786
5.883333333,195.5034
5.9,229.7165
5.916666667,283.48
5.933333333,342.131
5.95,400.782
5.966666667,430.1075
5.983333333,454.5455
6,459.433
6.016666667,464.3206
6.033333333,444.7703
6.05,420.3324
6.066666667,415.4448
6.083333333,430.1075
6.1,464.3206
6.116666667,518.0841
6.133333333,571.8475
6.15,635.3861
6.166666667,674.4868
6.183333333,698.9247
6.2,733.1378
6.216666667,752.6882
6.233333333,796.6764
6.25,850.4399
6.266666667,884.653
6.283333333,918.8661
6.3,957.9668
6.316666667,977.5171
6.333333333,967.7419
6.35,948.1916
6.366666667,938.4164
6.383333333,933.5288
6.4,953.0792
6.416666667,1089.9316
6.433333333,1256.1095
6.45,1417.3998
6.466666667,1573.8025
6.483333333,1652.0039
6.5,1661.7791
6.516666667,1627.566
6.533333333,1461.3881
6.55,1148.5826
6.566666667,806.4516
6.583333333,513.1965
6.6,298.1427
6.616666667,156.4027
6.633333333,78.2014
6.65,68.4262
6.666666667,63.5386
6.683333333,68.4262
6.7,68.4262
6.716666667,78.2014
6.733333333,92.8641
6.75,117.3021
6.766666667,151.5152
6.783333333,166.1779
6.8,161.2903
6.816666667,141.74
6.833333333,117.3021
6.85,102.6393
6.866666667,87.9765
6.883333333,83.089
6.9,73.3138
6.916666667,68.4262
6.933333333,68.4262
6.95,73.3138
6.966666667,68.4262
6.983333333,68.4262
7,73.3138
7.016666667,68.4262
7.033333333,73.3138
7.05,78.2014
7.066666667,78.2014
7.083333333,83.089
7.1,97.7517
7.116666667,117.3021
7.133333333,151.5152
7.15,195.5034
7.166666667,219.9413
7.183333333,224.8289
7.2,215.0538
7.216666667,205.2786
7.233333333,195.5034
7.25,180.8407
7.266666667,166.1779
7.283333333,146.6276
7.3,151.5152
7.316666667,175.9531
7.333333333,210.1662
7.35,254.1544
7.366666667,283.48
7.383333333,298.1427
7.4,283.48
7.416666667,263.9296
7.433333333,268.8172
7.45,307.9179
7.466666667,361.6813
7.483333333,400.782
7.5,415.4448
7.516666667,430.1075
7.533333333,449.6579
7.55,508.3089
7.566666667,610.9482
7.583333333,679.3744
7.6,738.0254
7.616666667,889.5406
7.633333333,1270.7722
7.65,1270.7722
7.666666667,1045.9433
7.683333333,762.4633
7.7,498.5337
7.716666667,303.0303
7.733333333,161.2903
7.75,83.089
7.766666667,73.3138
7.783333333,63.5386
7.8,68.4262
7.816666667,68.4262
7.833333333,68.4262
7.85,68.4262
7.866666667,68.4262
7.883333333,73.3138
7.9,78.2014
7.916666667,87.9765
7.933333333,97.7517
7.95,107.5269
7.966666667,127.0772
7.983333333,156.4027
8,205.2786
8.016666667,254.1544
8.033333333,273.7048
8.05,273.7048
8.066666667,268.8172
8.083333333,263.9296
8.1,268.8172
8.116666667,263.9296
8.133333333,259.042
8.15,263.9296
8.166666667,293.2551
8.183333333,347.0186
8.2,415.4448
8.216666667,454.5455
8.233333333,439.8827
8.25,410.5572
8.266666667,410.5572
8.283333333,464.3206
8.3,527.8592
8.316666667,571.8475
8.333333333,601.173
8.35,620.7234
8.366666667,640.2737
8.383333333,654.9365
8.4,664.7116
8.416666667,679.3744
8.433333333,698.9247
8.45,733.1378
8.466666667,777.1261
8.483333333,830.8895
8.5,884.653
8.516666667,953.0792
8.533333333,1021.5054
8.55,1109.4819
8.566666667,1217.0088
8.583333333,1309.8729
8.6,1436.9501
8.616666667,1642.2287
8.633333333,1886.608
8.65,2126.0997
8.666666667,2316.7155
8.683333333,2394.9169
8.7,2355.8162
8.716666667,2243.4018
8.733333333,2101.6618
8.75,1989.2473
8.766666667,2013.6852
8.783333333,2482.8935
8.8,3191.5934
8.816666667,3734.1153
8.833333333,3861.1926
8.85,3587.4878
8.866666667,3040.0782
8.883333333,2399.8045
8.9,1798.6315
8.916666667,1295.2102
8.933333333,928.6413
8.95,713.5875
8.966666667,620.7234
8.983333333,596.2854
9,532.7468
9.016666667,415.4448
9.033333333,298.1427
9.05,200.391
9.066666667,136.8524
9.083333333,97.7517
9.1,171.0655
9.116666667,410.5572
9.133333333,718.4751
9.15,967.7419
9.166666667,1143.695
9.183333333,1300.0978
9.2,1397.8495
9.216666667,1402.737
9.233333333,1373.4115
9.25,1466.2757
9.266666667,1647.1163
9.283333333,1730.2053
9.3,1588.4653
9.316666667,1436.9501
9.333333333,1647.1163
9.35,2033.2356
9.366666667,2536.6569
9.383333333,3020.5279
9.4,3044.9658
9.416666667,2722.3851
9.433333333,2355.8162
9.45,2218.9638
9.466666667,2346.0411
9.483333333,2609.9707
9.5,2859.2375
9.516666667,3147.6051
9.533333333,3460.4106
9.55,3680.3519
9.566666667,3836.7546
9.583333333,3880.7429
9.6,3856.305
9.616666667,3768.3284
9.633333333,3768.3284
9.65,3792.7664
9.666666667,3802.5415
9.683333333,3856.305
9.7,3910.0684
9.716666667,4007.8201
9.733333333,3914.956
9.75,3773.216
9.766666667,3729.2278
9.783333333,3519.0616
9.8,3211.1437
9.816666667,2976.5396
9.833333333,2859.2375
9.85,2697.9472
9.866666667,2497.5562
9.883333333,2346.0411
9.9,2174.9756
9.916666667,1989.2473
9.933333333,1749.7556
9.95,1427.175
9.966666667,1055.7185
9.983333333,698.9247
10,420.3324
10.01666667,229.7165
10.03333333,107.5269
10.05,73.3138
10.06666667,68.4262
10.08333333,63.5386
10.1,68.4262
10.11666667,68.4262
10.13333333,73.3138
10.15,68.4262
10.16666667,68.4262
10.18333333,97.7517
10.2,136.8524
10.21666667,161.2903
10.23333333,166.1779
10.25,151.5152
10.26666667,127.0772
10.28333333,107.5269
10.3,97.7517
10.31666667,87.9765
10.33333333,78.2014
10.35,78.2014
10.36666667,73.3138
10.38333333,73.3138
10.4,73.3138
10.41666667,73.3138
10.43333333,78.2014
10.45,102.6393
10.46666667,156.4027
10.48333333,239.4917
10.5,303.0303
10.51666667,347.0186
10.53333333,395.8944
10.55,439.8827
10.56666667,488.7586
10.58333333,532.7468
10.6,557.1848
10.61666667,557.1848
10.63333333,601.173
10.65,689.1496
10.66666667,801.564
10.68333333,923.7537
10.7,1041.0557
10.71666667,1133.9198
10.73333333,1192.5709
10.75,1143.695
10.76666667,1016.6178
10.78333333,938.4164
10.8,938.4164
10.81666667,948.1916
10.83333333,953.0792
10.85,987.2923
10.86666667,1031.2805
10.88333333,1089.9316
10.9,1158.3578
10.91666667,1221.8964
10.93333333,1290.3226
10.95,1392.9619
10.96666667,1505.3763
10.98333333,1598.2405
11,1652.0039
11.01666667,1691.1046
11.03333333,1739.9804
11.05,1744.868
11.06666667,1695.9922
11.08333333,1647.1163
11.1,1578.6901
11.11666667,1417.3998
11.13333333,1182.7957
11.15,874.8778
11.16666667,586.5103
11.18333333,351.9062
11.2,195.5034
11.21666667,97.7517
11.23333333,68.4262
11.25,68.4262
11.26666667,68.4262
11.28333333,68.4262
11.3,68.4262
11.31666667,83.089
11.33333333,102.6393
11.35,136.8524
11.36666667,166.1779
11.38333333,195.5034
11.4,239.4917
11.41666667,278.5924
11.43333333,327.4682
11.45,351.9062
11.46666667,366.5689
11.48333333,405.6696
11.5,420.3324
11.51666667,439.8827
11.53333333,444.7703
11.55,483.871
11.56666667,503.4213
11.58333333,503.4213
11.6,503.4213
11.61666667,488.7586
11.63333333,493.6461
11.65,522.9717
11.66666667,552.2972
11.68333333,596.2854
11.7,625.6109
11.71666667,601.173
11.73333333,522.9717
11.75,439.8827
11.76666667,391.0068
11.78333333,366.5689
11.8,371.4565
11.81666667,410.5572
11.83333333,469.2082
11.85,513.1965
11.86666667,557.1848
11.88333333,703.8123
11.9,957.9668
11.91666667,1197.4585
11.93333333,1363.6364
11.95,1436.9501
11.96666667,1554.2522
11.98333333,1652.0039
12,1744.868
12.01666667,1852.3949
12.03333333,2008.7977
12.05,2067.4487
12.06666667,1994.1349
12.08333333,1852.3949
12.1,1700.8798
12.11666667,1617.7908
12.13333333,1593.3529
12.15,1578.6901
12.16666667,1495.6012
12.18333333,1334.3109
12.2,1153.4702
12.21666667,1031.2805
12.23333333,904.2033
12.25,742.913
12.26666667,552.2972
12.28333333,381.2317
12.3,239.4917
12.31666667,146.6276
12.33333333,87.9765
12.35,68.4262
12.36666667,63.5386
12.38333333,68.4262
12.4,68.4262
12.41666667,68.4262
12.43333333,68.4262
12.45,63.5386
12.46666667,68.4262
12.48333333,68.4262
12.5,68.4262
12.51666667,73.3138
12.53333333,73.3138
12.55,73.3138
12.56666667,78.2014
12.58333333,78.2014
12.6,78.2014
12.61666667,78.2014
12.63333333,78.2014
12.65,83.089
12.66666667,78.2014
12.68333333,107.5269
12.7,190.6158
12.71666667,268.8172
12.73333333,351.9062
12.75,425.2199
12.76666667,493.6461
12.78333333,566.9599
12.8,635.3861
12.81666667,698.9247
12.83333333,796.6764
12.85,904.2033
12.86666667,987.2923
12.88333333,1075.2688
12.9,1153.4702
12.91666667,1217.0088
12.93333333,1275.6598
12.95,1329.4233
12.96666667,1383.1867
12.98333333,1427.175
13,1471.1632
13.01666667,1485.826
13.03333333,1432.0626
13.05,1378.2991
13.06666667,1446.7253
13.08333333,1529.8143
13.1,1564.0274
13.11666667,1534.7019
13.13333333,1480.9384
13.15,1427.175
13.16666667,1427.175
13.18333333,1510.2639
13.2,1647.1163
13.21666667,1754.6432
13.23333333,1827.957
13.25,1886.608
13.26666667,1979.4721
13.28333333,2121.2121
13.3,2248.2893
13.31666667,2258.0645
13.33333333,2086.999
13.35,1705.7674
13.36666667,1270.7722
13.38333333,850.4399
13.4,503.4213
13.41666667,268.8172
13.43333333,127.0772
13.45,68.4262
13.46666667,68.4262
13.48333333,68.4262
13.5,68.4262
13.51666667,63.5386
13.53333333,68.4262
13.55,83.089
13.56666667,92.8641
13.58333333,127.0772
13.6,141.74
13.61666667,146.6276
13.63333333,146.6276
13.65,146.6276
13.66666667,146.6276
13.68333333,151.5152
13.7,151.5152
13.71666667,146.6276
13.73333333,146.6276
13.75,151.5152
13.76666667,161.2903
13.78333333,175.9531
13.8,190.6158
13.81666667,210.1662
13.83333333,224.8289
13.85,303.0303
13.86666667,420.3324
13.88333333,493.6461
13.9,522.9717
13.91666667,527.8592
13.93333333,542.522
13.95,566.9599
13.96666667,615.8358
13.98333333,713.5875
14,850.4399
14.01666667,918.8661
14.03333333,943.304
14.05,962.8543
14.06666667,977.5171
14.08333333,987.2923
14.1,1011.7302
14.11666667,1036.1681
14.13333333,1060.6061
14.15,1104.5943
14.16666667,1153.4702
14.18333333,1231.6716
14.2,1363.6364
14.21666667,1456.5005
14.23333333,1402.737
14.25,1236.5591
14.26666667,1050.8309
14.28333333,967.7419
14.3,1031.2805
14.31666667,1177.9081
14.33333333,1348.9736
14.35,1500.4888
14.36666667,1622.6784
14.38333333,1705.7674
14.4,1759.5308
14.41666667,1832.8446
14.43333333,1862.1701
14.45,1744.868
14.46666667,1598.2405
14.48333333,1529.8143
14.5,1402.737
14.51666667,1192.5709
14.53333333,928.6413
14.55,654.9365
14.56666667,425.2199
14.58333333,249.2669
14.6,136.8524
14.61666667,78.2014
14.63333333,63.5386
14.65,68.4262
14.66666667,68.4262
14.68333333,68.4262
14.7,78.2014
14.71666667,83.089
14.73333333,97.7517
14.75,117.3021
14.76666667,136.8524
14.78333333,171.0655
14.8,190.6158
14.81666667,200.391
14.83333333,205.2786
14.85,205.2786
14.86666667,190.6158
14.88333333,161.2903
14.9,131.9648
14.91666667,107.5269
14.93333333,92.8641
14.95,78.2014
14.96666667,78.2014
14.98333333,83.089
15,97.7517
15.01666667,102.6393
15.03333333,112.4145
15.05,127.0772
15.06666667,141.74
15.08333333,156.4027
15.1,175.9531
15.11666667,185.7283
15.13333333,190.6158
15.15,190.6158
15.16666667,219.9413
15.18333333,273.7048
15.2,312.8055
15.21666667,351.9062
15.23333333,381.2317
15.25,410.5572
15.26666667,522.9717
15.28333333,698.9247
15.3,909.0909
15.31666667,1089.9316
15.33333333,1085.044
15.35,982.4047
15.36666667,840.6647
15.38333333,826.002
15.4,913.9785
15.41666667,1075.2688
15.43333333,1260.9971
15.45,1417.3998
15.46666667,1539.5894
15.48333333,1617.7908
15.5,1661.7791
15.51666667,1686.217
15.53333333,1739.9804
15.55,1759.5308
15.56666667,1578.6901
15.58333333,1246.3343
15.6,879.7654
15.61666667,552.2972
15.63333333,317.6931
15.65,161.2903
15.66666667,73.3138
15.68333333,68.4262
15.7,68.4262
15.71666667,68.4262
15.73333333,68.4262
15.75,68.4262
15.76666667,68.4262
15.78333333,68.4262
15.8,63.5386
15.81666667,68.4262
15.83333333,68.4262
15.85,97.7517
15.86666667,205.2786
15.88333333,327.4682
15.9,400.782
15.91666667,434.9951
15.93333333,454.5455
15.95,478.9834
15.96666667,498.5337
15.98333333,508.3089
16,508.3089
16.01666667,522.9717
16.03333333,557.1848
16.05,615.8358
16.06666667,703.8123
16.08333333,782.0137
16.1,830.8895
16.11666667,894.4282
16.13333333,977.5171
16.15,1075.2688
16.16666667,1163.2454
16.18333333,1251.2219
16.2,1329.4233
16.21666667,1388.0743
16.23333333,1407.6246
16.25,1422.2874
16.26666667,1451.6129
16.28333333,1432.0626
16.3,1402.737
16.31666667,1392.9619
16.33333333,1402.737
16.35,1476.0508
16.36666667,1529.8143
16.38333333,1505.3763
16.4,1446.7253
16.41666667,1383.1867
16.43333333,1334.3109
16.45,1285.435
16.46666667,1236.5591
16.48333333,1217.0088
16.5,1260.9971
16.51666667,1373.4115
16.53333333,1500.4888
16.55,1603.1281
16.56666667,1676.4418
16.58333333,1671.5543
16.6,1612.9032
16.61666667,1627.566
16.63333333,1661.7791
16.65,1617.7908
16.66666667,1456.5005
16.68333333,1177.9081
16.7,860.2151
16.71666667,566.9599
16.73333333,337.2434
16.75,185.7283
16.76666667,92.8641
16.78333333,68.4262
16.8,63.5386
16.81666667,73.3138
16.83333333,68.4262
16.85,68.4262
16.86666667,68.4262
16.88333333,68.4262
16.9,68.4262
